Span (%),Temperature (°R)
0.0,1120
5.0,1140
10.0,1160
15.0,1180
20.0,1200
25.0,1220
30.0,1235
35.0,1245
40.0,1250
45.0,1255
50.0,1260
55.0,1260
60.0,1255
65.0,1245
70.0,1235
75.0,1220
80.0,1200
85.0,1180
90.0,1160
95.0,1140
100.0,1120
