Span (%),Temperature (°R)
0.0,1140
5.0,1160
10.0,1180
15.0,1200
20.0,1220
25.0,1240
30.0,1255
35.0,1265
40.0,1270
45.0,1275
50.0,1280
55.0,1280
60.0,1275
65.0,1265
70.0,1255
75.0,1240
80.0,1220
85.0,1200
90.0,1180
95.0,1160
100.0,1140
